19.13,97.72
19.40,97.80
19.69,97.86
19.97,97.94
20.26,98.01
20.56,98.48
20.86,98.55
21.16,98.62
21.47,98.68
21.78,98.83
22.10,99.16
22.42,99.23
22.74,99.30
23.08,99.50
23.41,99.57
23.75,99.75
24.10,99.81
24.45,99.98
24.80,100.05
25.16,100.11
25.53,100.34
25.90,100.41
26.28,100.47
26.66,100.55
27.05,100.61
27.44,100.72
27.84,100.78
28.25,100.81
28.66,100.87
29.07,101.00
29.50,100.92
29.93,100.97
30.36,101.04
30.80,101.13
31.25,101.18
31.70,101.25
32.17,101.41
32.63,101.46
33.11,101.42
33.59,101.47
34.08,101.47
34.57,101.54
35.08,101.60
35.59,101.50
36.10,101.56
36.63,101.62
37.16,101.60
37.70,101.57
38.25,101.68
38.81,101.73
39.37,101.69
39.95,101.75
40.53,101.79
41.12,101.76
41.71,101.81
42.32,101.94
42.94,101.99
43.56,101.90
44.19,101.90
44.84,101.86
45.49,101.91
46.15,101.85
46.82,101.90
47.50,101.79
48.19,101.84
48.90,101.80
49.61,101.71
50.33,101.76
51.06,101.76
51.80,101.80
52.56,101.81
53.32,101.80
54.10,101.85
54.88,101.75
55.68,101.80
56.49,101.77
57.31,101.77
58.15,101.76
58.99,101.70
59.85,101.48
60.72,101.52
61.60,101.51
62.50,101.53
63.41,101.44
64.33,101.50
65.27,101.50
66.22,101.52
67.18,101.47
68.16,101.44
69.15,101.39
70.15,101.35
71.17,101.30
72.21,101.29
73.26,101.20
74.33,101.15
75.41,101.09
76.50,100.97
77.62,100.88
78.75,100.88
79.89,100.88
81.05,100.86
82.23,100.82
83.43,100.87
84.64,100.75
85.87,100.61
87.12,100.53
88.39,100.49
89.67,100.40
90.98,100.31
92.30,100.20
93.64,100.22
95.01,100.18
96.39,100.14
97.79,100.12
99.21,99.95
100.66,99.90
102.12,99.76
103.61,99.59
105.11,99.60
106.64,99.58
108.19,99.51
109.77,99.42
111.36,99.41
112.98,99.42
114.63,99.37
116.29,99.18
117.98,99.07
119.70,99.00
121.44,98.88
123.21,98.80
125.00,98.66
126.82,98.60
128.66,98.57
130.53,98.58
132.43,98.52
134.36,98.40
136.31,98.27
138.30,98.22
140.31,98.18
142.35,98.04
144.42,97.91
146.52,97.85
148.65,97.88
150.81,97.79
153.01,97.74
155.23,97.66
157.49,97.59
159.78,97.52
162.10,97.39
164.46,97.37
166.85,97.25
169.28,97.19
171.74,96.96
174.24,96.91
176.78,96.84
179.35,96.74
181.96,96.57
184.60,96.38
187.29,96.28
190.01,96.14
192.78,96.06
195.58,95.99
198.43,95.85
201.31,95.68
204.24,95.58
207.21,95.51
210.22,95.49
213.28,95.47
216.38,95.38
219.53,95.28
222.72,95.28
225.96,95.25
229.25,95.18
232.59,95.08
235.97,95.04
239.40,94.96
242.88,94.98
246.42,94.93
250.00,94.89
253.64,94.76
257.33,94.68
261.07,94.61
264.87,94.58
268.72,94.48
272.63,94.39
276.59,94.27
280.62,94.16
284.70,94.06
288.84,93.99
293.04,93.84
297.30,93.76
301.63,93.65
306.01,93.62
310.46,93.54
314.98,93.44
319.56,93.28
324.21,93.23
328.93,93.14
333.71,93.07
338.56,93.02
343.49,92.91
348.48,92.89
353.55,92.78
358.70,92.66
363.91,92.60
369.21,92.47
374.58,92.26
380.03,92.15
385.55,92.01
391.16,91.87
396.85,91.84
402.62,91.74
408.48,91.66
414.42,91.57
420.45,91.47
426.56,91.49
432.77,91.50
439.06,91.47
445.45,91.48
451.93,91.42
458.50,91.30
465.17,91.23
471.94,91.12
478.80,91.06
485.77,90.97
492.83,90.88
500.00,90.79
507.27,90.70
514.65,90.67
522.14,90.53
529.73,90.47
537.44,90.43
545.25,90.40
553.18,90.36
561.23,90.20
569.39,90.05
577.68,90.02
586.08,89.93
594.60,89.86
603.25,89.83
612.03,89.72
620.93,89.74
629.96,89.79
639.12,89.77
648.42,89.68
657.85,89.69
667.42,89.69
677.13,89.62
686.98,89.64
696.97,89.63
707.11,89.61
717.39,89.62
727.83,89.58
738.41,89.55
749.15,89.55
760.05,89.57
771.11,89.59
782.32,89.57
793.70,89.55
805.25,89.56
816.96,89.60
828.84,89.68
840.90,89.66
853.13,89.70
865.54,89.67
878.13,89.67
890.90,89.66
903.86,89.66
917.00,89.62
930.34,89.63
943.87,89.69
957.60,89.68
971.53,89.73
985.66,89.84
1000.00,89.94
1014.55,90.04
1029.30,90.15
1044.27,90.25
1059.46,90.30
1074.87,90.41
1090.51,90.49
1106.37,90.58
1122.46,90.66
1138.79,90.81
1155.35,90.94
1172.16,91.05
1189.21,91.19
1206.50,91.33
1224.05,91.41
1241.86,91.50
1259.92,91.65
1278.25,91.76
1296.84,91.88
1315.70,92.05
1334.84,92.16
1354.26,92.30
1373.95,92.44
1393.94,92.54
1414.21,92.74
1434.78,92.89
1455.65,93.11
1476.83,93.21
1498.31,93.42
1520.10,93.52
1542.21,93.71
1564.64,93.90
1587.40,94.09
1610.49,94.29
1633.92,94.60
1657.68,94.88
1681.79,95.03
1706.26,95.29
1731.07,95.58
1756.25,95.80
1781.80,96.05
1807.71,96.31
1834.01,96.61
1860.68,96.85
1887.75,97.06
1915.21,97.31
1943.06,97.51
1971.33,97.76
2000.00,98.00
2029.09,98.29
2058.60,98.60
2088.55,98.92
2118.93,99.29
2149.75,99.61
2181.02,99.95
2212.74,100.24
2244.92,100.58
2277.58,100.87
2310.71,101.22
2344.32,101.55
2378.41,101.91
2413.01,102.29
2448.11,102.65
2483.72,103.07
2519.84,103.46
2556.49,103.81
2593.68,104.11
2631.41,104.39
2669.68,104.62
2708.51,104.79
2747.91,104.97
2787.88,105.02
2828.43,105.03
2869.57,105.04
2911.31,104.91
2953.65,104.80
2996.61,104.58
3040.20,104.42
3084.42,104.19
3129.29,103.93
3174.80,103.69
3220.98,103.38
3267.83,103.14
3315.36,102.96
3363.59,102.75
3412.51,102.59
3462.15,102.42
3512.50,102.25
3563.59,102.14
3615.43,102.05
3668.02,101.99
3721.37,101.90
3775.50,101.86
3830.41,101.86
3886.13,101.89
3942.65,102.00
4000.00,102.13
4058.18,102.25
4117.21,102.42
4177.10,102.57
4237.85,102.86
4299.49,103.13
4362.03,103.48
4425.48,103.83
4489.85,104.05
4555.15,104.30
4621.41,104.44
4688.63,104.62
4756.83,104.73
4826.02,104.72
4896.21,104.49
4967.43,104.10
5039.68,103.61
5112.99,102.98
5187.36,102.40
5262.81,101.73
5339.36,101.11
5417.02,100.45
5495.81,99.80
5575.75,99.22
5656.85,98.71
5739.14,98.23
5822.61,97.70
5907.30,97.22
5993.23,96.87
6080.40,96.62
6168.84,96.32
6258.57,96.12
6349.60,95.98
6441.96,95.93
6535.66,95.88
6630.73,95.94
6727.17,96.00
6825.02,96.17
6924.29,96.38
7025.01,96.66
7127.19,96.99
7230.86,97.43
7336.03,97.97
7442.74,98.65
7550.99,99.35
7660.83,100.05
7772.26,100.75
7885.31,101.40
8000.00,101.91
8116.36,102.18
8234.42,102.05
8354.19,101.59
8475.70,100.85
8598.99,100.06
8724.06,99.26
8850.96,98.50
8979.70,97.93
9110.31,97.49
9242.82,97.20
9377.26,97.05
9513.66,96.93
9652.04,97.03
9792.43,97.29
9934.86,97.59
10079.37,97.87
10225.98,97.89
10374.72,97.58
10525.62,97.02
10678.72,96.02
10834.04,94.66
10991.63,93.17
11151.51,91.77
11313.71,90.50
11478.27,89.37
11645.23,88.29
11814.61,87.39
11986.46,86.65
12160.80,86.03
12337.69,85.50
12517.14,85.13
12699.21,84.82
12883.92,84.54
13071.32,84.38
13261.45,84.08
13454.34,83.59
13650.04,83.32
13848.58,83.13
14050.02,82.70
14254.38,82.20
14461.71,81.80
14672.06,81.41
14885.47,81.03
15101.99,80.58
15321.65,79.99
15544.51,79.30
15770.61,78.49
16000.00,77.69
16232.73,76.92
16468.84,76.32
16708.38,76.06
16951.41,76.18
17197.97,77.00
17448.12,78.28
17701.91,79.48
17959.39,79.57
18220.62,78.16
18485.64,76.06
18754.52,74.22
19027.31,72.94
19304.07,71.75
19584.86,70.40
19869.72,68.68